Frame Index,Elapsed Time,FPS,Width,Height,Puck Position X,Puck Position Y,Puck Position Alpha,Puck Velocity X,Puck Velocity Y,Puck Velocity Alpha,Mallet Position X,Mallet Position Y,Mallet Position Alpha,TableBoundary1X,TableBoundary1Y,TableBoundary2X,TableBoundary2Y,Boundary Collision X,Boundary Collision Y,Mallet Target X,Mallet Target Y,Mallet Current X,Mallet Current Y,Puck Radius,Serial - Mallet Target Location,Serial - Mallet Current Location
14152,63595534510817.1,60.00024000096,320,240,33,51,27,0,0,27,284,135,27,35,33,288,196,275,136,275,136,284,135,13,136,135
14153,63595534510842.1,60.00024000096,320,240,33,51,27,0,0,27,284,135,27,35,33,288,196,275,136,275,136,284,135,13,136,135
14154,63595534510869.1,60.00024000096,320,240,33,51,27,0,0,27,284,135,27,35,33,288,196,275,136,275,136,284,135,13,136,135
14155,63595534510895.1,60.00024000096,320,240,33,51,27,0,0,27,285,136,27,35,33,288,196,275,136,275,136,285,136,13,136,136
14156,63595534510915.1,60.00024000096,320,240,33,51,27,0,0,27,285,136,27,35,33,288,196,275,136,275,136,285,136,13,136,136
14157,63595534510940.1,60.00024000096,320,240,33,51,27,0,0,27,285,137,27,35,33,288,196,275,136,275,136,285,137,13,136,137
14158,63595534510961.1,60.00024000096,320,240,33,51,27,0,0,27,285,137,27,35,33,288,196,275,136,275,136,285,137,13,136,137
14159,63595534510986.1,60.00024000096,320,240,34,52,27,0,0,27,285,137,27,35,33,288,196,275,136,275,136,285,137,13,136,137
14160,63595534511013.1,60.00024000096,320,240,33,51,27,0,0,27,284,137,27,35,33,288,196,275,136,275,136,284,137,13,136,137
14161,63595534511035.1,60.00024000096,320,240,33,51,27,0,0,27,284,137,27,35,33,288,196,275,136,275,136,284,137,13,136,137
14162,63595534511063.1,60.00024000096,320,240,33,51,27,0,0,27,285,137,27,35,33,288,196,275,136,275,136,285,137,13,136,137
14163,63595534511084.1,60.00024000096,320,240,33,51,27,0,0,27,285,137,27,35,33,288,196,275,136,275,136,285,137,13,136,137
14164,63595534511108.1,60.00024000096,320,240,33,51,27,0,0,27,285,136,27,35,33,288,196,275,136,275,136,285,136,13,136,136
14165,63595534511139.1,60.00024000096,320,240,33,51,27,0,0,27,284,137,27,35,33,288,196,275,136,275,136,284,137,13,136,137
14166,63595534511157.1,60.00024000096,320,240,33,51,27,0,0,27,284,137,27,35,33,288,196,275,136,275,136,284,137,13,136,137
14167,63595534511179.1,60.00024000096,320,240,33,51,27,0,0,27,284,137,27,35,33,288,196,275,136,275,136,284,137,13,136,137
14168,63595534511198.1,60.00024000096,320,240,33,51,27,0,0,27,284,136,27,35,33,288,196,275,136,275,136,284,136,13,136,136
14169,63595534511217.1,60.00024000096,320,240,33,51,27,0,0,27,284,136,27,35,33,288,196,275,136,275,136,284,136,13,136,136
14170,63595534511235.1,60.00024000096,320,240,33,51,27,0,0,27,283,136,27,35,33,288,196,275,136,275,136,283,136,13,136,136
14171,63595534511258.1,60.00024000096,320,240,33,51,27,0,0,27,283,136,27,35,33,288,196,275,136,275,136,283,136,13,136,136
14172,63595534511279.1,60.00024000096,320,240,33,51,27,0,0,27,283,136,27,35,33,288,196,275,136,275,136,283,136,13,136,136
14173,63595534511300.1,60.00024000096,320,240,33,51,27,0,0,27,283,136,27,35,33,288,196,275,136,275,136,283,136,13,136,136
14174,63595534511321.1,60.00024000096,320,240,34,52,27,0,0,27,283,136,27,35,33,288,196,275,136,275,136,283,136,13,136,136
14175,63595534511344.1,60.00024000096,320,240,33,51,27,0,0,27,283,136,27,35,33,288,196,275,136,275,136,283,136,13,136,136
14176,63595534511362.1,60.00024000096,320,240,33,51,27,0,0,27,283,136,27,35,33,288,196,275,136,275,136,283,136,13,136,136
14177,63595534511383.1,60.00024000096,320,240,33,51,27,0,0,27,283,136,27,35,33,288,196,275,136,275,136,283,136,13,136,136
14178,63595534511404.1,60.00024000096,320,240,33,51,27,0,0,27,283,136,27,35,33,288,196,275,136,275,136,283,136,13,136,136
14179,63595534511423.1,60.00024000096,320,240,33,51,27,0,0,27,283,136,27,35,33,288,196,275,136,275,136,283,136,13,136,136
14180,63595534511444.1,60.00024000096,320,240,33,51,27,0,0,27,283,136,27,35,33,288,196,275,136,275,136,283,136,13,136,136
14181,63595534511466.1,60.00024000096,320,240,33,51,27,0,0,27,283,136,27,35,33,288,196,275,136,275,136,283,136,13,136,136
14182,63595534511487.1,60.00024000096,320,240,33,51,27,0,0,27,283,136,27,35,33,288,196,275,136,275,136,283,136,13,136,136
14183,63595534511508.1,60.00024000096,320,240,33,51,27,0,0,27,283,136,27,35,33,288,196,275,136,275,136,283,136,13,136,136
14184,63595534511526.1,60.00024000096,320,240,33,51,27,0,0,27,283,135,27,35,33,288,196,275,136,275,136,283,135,13,136,135
14185,63595534511549.1,60.00024000096,320,240,33,51,27,0,0,27,283,136,27,35,33,288,196,275,136,275,136,283,136,13,136,136
14186,63595534511568.1,60.00024000096,320,240,33,51,27,0,0,27,283,136,27,35,33,288,196,275,136,275,136,283,136,13,136,136
14187,63595534511588.1,60.00024000096,320,240,33,51,27,0,0,27,283,135,27,35,33,288,196,275,136,275,136,283,135,13,136,135
14188,63595534511608.1,60.00024000096,320,240,33,51,27,0,0,27,283,136,27,35,33,288,196,275,136,275,136,283,136,13,136,136
14189,63595534511630.1,60.00024000096,320,240,33,51,27,0,0,27,284,136,27,35,33,288,196,275,136,275,136,284,136,13,136,136
14190,63595534511650.1,60.00024000096,320,240,33,51,27,0,0,27,284,135,27,35,33,288,196,275,136,275,136,284,135,13,136,135
14191,63595534511677.1,60.00024000096,320,240,33,51,27,0,0,27,284,135,27,35,33,288,196,275,136,275,136,284,135,13,136,135
14192,63595534511697.1,60.00024000096,320,240,33,51,27,0,0,27,284,136,27,35,33,288,196,275,136,275,136,284,136,13,136,136
14193,63595534511720.1,60.00024000096,320,240,33,51,27,0,0,27,284,136,27,35,33,288,196,275,136,275,136,284,136,13,136,136
14194,63595534511739.1,60.00024000096,320,240,33,51,27,0,0,27,284,136,27,35,33,288,196,275,136,275,136,284,136,13,136,136
14195,63595534511761.1,60.00024000096,320,240,33,51,27,0,0,27,284,136,27,35,33,288,196,275,136,275,136,284,136,13,136,136
14196,63595534511781.1,60.00024000096,320,240,33,51,27,0,0,27,285,136,27,35,33,288,196,275,136,275,136,285,136,13,136,136
14197,63595534511801.1,60.00024000096,320,240,33,52,27,0,0,27,285,137,27,35,33,288,196,275,136,275,136,285,137,13,136,137
14198,63595534511823.1,60.00024000096,320,240,33,51,27,0,0,27,285,137,27,35,33,288,196,275,136,275,136,285,137,13,136,137
14199,63595534511844.1,60.00024000096,320,240,33,51,27,0,0,27,285,136,27,35,33,288,196,275,136,275,136,285,136,13,136,136
14200,63595534511869.1,60.00024000096,320,240,33,51,27,0,0,27,284,136,27,35,33,288,196,275,136,275,136,284,136,13,136,136
14201,63595534511891.1,60.00024000096,320,240,33,51,27,0,0,27,285,136,27,35,33,288,196,275,136,275,136,285,136,13,136,136
14202,63595534511910.1,60.00024000096,320,240,33,51,27,0,0,27,285,136,27,35,33,288,196,275,136,275,136,285,136,13,136,136
14203,63595534511931.1,60.00024000096,320,240,33,51,27,0,0,27,285,135,27,35,33,288,196,275,136,275,136,285,135,13,136,135
14204,63595534511951.1,60.00024000096,320,240,33,51,27,0,0,27,285,135,27,35,33,288,196,275,136,275,136,285,135,13,136,135
14205,63595534511971.1,60.00024000096,320,240,33,51,27,0,0,27,285,135,27,35,33,288,196,275,136,275,136,285,135,13,136,135
14206,63595534511989.1,60.00024000096,320,240,33,51,27,0,0,27,285,135,27,35,33,288,196,275,136,275,136,285,135,13,136,135
14207,63595534512011.1,60.00024000096,320,240,33,51,27,0,0,27,284,135,27,35,33,288,196,275,136,275,136,284,135,13,136,135
14208,63595534512032.2,60.00024000096,320,240,33,51,27,0,0,27,285,136,27,35,33,288,196,275,136,275,136,285,136,13,136,136
14209,63595534512061.2,60.00024000096,320,240,33,51,27,0,0,27,285,136,27,35,33,288,196,275,136,275,136,285,136,13,136,136
14210,63595534512082.2,60.00024000096,320,240,33,51,27,0,0,27,284,136,27,35,33,288,196,275,136,275,136,284,136,13,136,136
14211,63595534512106.2,60.00024000096,320,240,33,51,27,0,0,27,284,136,27,35,33,288,196,275,136,275,136,284,136,13,136,136
14212,63595534512124.2,60.00024000096,320,240,33,51,27,0,0,27,284,136,27,35,33,288,196,275,136,275,136,284,136,13,136,136
14213,63595534512146.2,60.00024000096,320,240,33,51,27,0,0,27,284,136,27,35,33,288,196,275,136,275,136,284,136,13,136,136
14214,63595534512171.2,60.00024000096,320,240,33,51,27,0,0,27,284,137,27,35,33,288,196,275,136,275,136,284,137,13,136,137
14215,63595534512191.2,60.00024000096,320,240,33,51,27,0,0,27,284,137,27,35,33,288,196,275,136,275,136,284,137,13,136,137
14216,63595534512211.2,60.00024000096,320,240,33,51,27,0,0,27,284,137,27,35,33,288,196,275,136,275,136,284,137,13,136,137
14217,63595534512231.2,60.00024000096,320,240,33,51,27,0,0,27,284,137,27,35,33,288,196,275,136,275,136,284,137,13,136,137
14218,63595534512256.2,60.00024000096,320,240,33,51,27,0,0,27,284,137,27,35,33,288,196,275,136,275,136,284,137,13,136,137
14219,63595534512278.2,60.00024000096,320,240,33,51,27,0,0,27,284,137,27,35,33,288,196,275,136,275,136,284,137,13,136,137
14220,63595534512299.2,60.00024000096,320,240,33,52,27,0,0,27,284,136,27,35,33,288,196,275,136,275,136,284,136,13,136,136
14221,63595534512321.2,60.00024000096,320,240,33,51,27,0,0,27,285,136,27,35,33,288,196,275,136,275,136,285,136,13,136,136
14222,63595534512339.2,60.00024000096,320,240,33,51,27,0,0,27,284,136,27,35,33,288,196,275,136,275,136,284,136,13,136,136
14223,63595534512358.2,60.00024000096,320,240,33,51,27,0,0,27,284,136,27,35,33,288,196,275,136,275,136,284,136,13,136,136
14224,63595534512377.2,60.00024000096,320,240,33,51,27,0,0,27,284,136,27,35,33,288,196,275,136,275,136,284,136,13,136,136
14225,63595534512397.2,60.00024000096,320,240,33,51,27,0,0,27,284,136,27,35,33,288,196,275,136,275,136,284,136,13,136,136
14226,63595534512415.2,60.00024000096,320,240,33,51,27,0,0,27,284,136,27,35,33,288,196,275,136,275,136,284,136,13,136,136
14227,63595534512435.2,60.00024000096,320,240,33,51,27,0,0,27,284,136,27,35,33,288,196,275,136,275,136,284,136,13,136,136
14228,63595534512455.2,60.00024000096,320,240,33,51,27,0,0,27,283,137,27,35,33,288,196,275,136,275,136,283,137,13,136,137
14229,63595534512479.2,60.00024000096,320,240,33,51,27,0,0,27,283,137,27,35,33,288,196,275,136,275,136,283,137,13,136,137
14230,63595534512499.2,60.00024000096,320,240,33,51,27,0,0,27,283,137,27,35,33,288,196,275,136,275,136,283,137,13,136,137
14231,63595534512522.2,60.00024000096,320,240,33,51,27,0,0,27,283,136,27,35,33,288,196,275,136,275,136,283,136,13,136,136
14232,63595534512542.2,60.00024000096,320,240,33,51,27,0,0,27,284,136,27,35,33,288,196,275,136,275,136,284,136,13,136,136
14233,63595534512561.2,60.00024000096,320,240,33,51,27,0,0,27,284,137,27,35,33,288,196,275,136,275,136,284,137,13,136,137
14234,63595534512583.2,60.00024000096,320,240,33,51,27,0,0,27,284,136,27,35,33,288,196,275,136,275,136,284,136,13,136,136
14235,63595534512602.2,60.00024000096,320,240,33,51,27,0,0,27,283,136,27,35,33,288,196,275,136,275,136,283,136,13,136,136
14236,63595534512622.2,60.00024000096,320,240,33,52,27,0,0,27,283,136,27,35,33,288,196,275,136,275,136,283,136,13,136,136
14237,63595534512644.2,60.00024000096,320,240,33,51,27,0,0,27,283,135,27,35,33,288,196,275,136,275,136,283,135,13,136,135
14238,63595534512665.2,60.00024000096,320,240,33,52,27,0,0,27,283,135,27,35,33,288,196,275,136,275,136,283,135,13,136,135
14239,63595534512688.2,60.00024000096,320,240,33,52,27,0,0,27,283,135,27,35,33,288,196,275,136,275,136,283,135,13,136,135
14240,63595534512710.2,60.00024000096,320,240,33,52,27,0,0,27,283,135,27,35,33,288,196,275,136,275,136,283,135,13,136,135
14241,63595534512730.2,60.00024000096,320,240,33,52,27,0,0,27,283,135,27,35,33,288,196,275,136,275,136,283,135,13,136,135
14242,63595534512750.2,60.00024000096,320,240,33,51,27,0,0,27,283,136,27,35,33,288,196,275,136,275,136,283,136,13,136,136
14243,63595534512771.2,60.00024000096,320,240,33,52,27,0,0,27,283,136,27,35,33,288,196,275,136,275,136,283,136,13,136,136
14244,63595534512790.2,60.00024000096,320,240,33,52,27,0,0,27,283,136,27,35,33,288,196,275,136,275,136,283,136,13,136,136
14245,63595534512812.2,60.00024000096,320,240,33,51,27,0,0,27,283,136,27,35,33,288,196,275,136,275,136,283,136,13,136,136
14246,63595534512830.2,60.00024000096,320,240,33,51,27,0,0,27,283,136,27,35,33,288,196,275,136,275,136,283,136,13,136,136
14247,63595534512853.2,60.00024000096,320,240,33,51,27,0,0,27,283,136,27,35,33,288,196,275,136,275,136,283,136,13,136,136
14248,63595534512874.2,60.00024000096,320,240,33,51,27,0,0,27,283,137,27,35,33,288,196,275,136,275,136,283,137,13,136,137
14249,63595534512898.2,60.00024000096,320,240,33,51,27,0,0,27,283,137,27,35,33,288,196,275,136,275,136,283,137,13,136,137
14250,63595534512922.2,60.00024000096,320,240,33,51,27,0,0,27,283,136,27,35,33,288,196,275,136,275,136,283,136,13,136,136
14251,63595534512944.2,60.00024000096,320,240,33,51,27,0,0,27,283,136,27,35,33,288,196,275,136,275,136,283,136,13,136,136
14252,63595534512968.2,60.00024000096,320,240,33,51,27,0,0,27,283,137,27,35,33,288,196,275,136,275,136,283,137,13,136,137
14253,63595534512993.2,60.00024000096,320,240,33,51,27,0,0,27,283,137,27,35,33,288,196,275,136,275,136,283,137,13,136,137
14254,63595534513022.2,60.00024000096,320,240,33,51,27,0,0,27,283,137,27,35,33,288,196,275,136,275,136,283,137,13,136,137
14255,63595534513046.2,60.00024000096,320,240,33,51,27,0,0,27,283,136,27,35,33,288,196,275,136,275,136,283,136,13,136,136
14256,63595534513069.2,60.00024000096,320,240,33,51,27,0,0,27,283,136,27,35,33,288,196,275,136,275,136,283,136,13,136,136
14257,63595534513090.2,60.00024000096,320,240,33,51,27,0,0,27,284,136,27,35,33,288,196,275,136,275,136,284,136,13,136,136
14258,63595534513110.2,60.00024000096,320,240,33,51,27,0,0,27,283,136,27,35,33,288,196,275,136,275,136,283,136,13,136,136
14259,63595534513129.2,60.00024000096,320,240,33,51,27,0,0,27,284,135,27,35,33,288,196,275,136,275,136,284,135,13,136,135
14260,63595534513185.2,60.00024000096,320,240,33,51,27,0,0,27,285,135,27,35,33,288,196,275,136,275,136,285,135,13,136,135
14261,63595534513207.2,60.00024000096,320,240,33,51,27,0,0,27,285,135,27,35,33,288,196,275,136,275,136,285,135,13,136,135
14262,63595534513227.2,60.00024000096,320,240,33,51,27,0,0,27,284,136,27,35,33,288,196,275,136,275,136,284,136,13,136,136
14263,63595534513250.2,60.00024000096,320,240,33,51,27,0,0,27,284,135,27,35,33,288,196,275,136,275,136,284,135,13,136,135
14264,63595534513271.2,60.00024000096,320,240,33,51,27,0,0,27,284,135,27,35,33,288,196,275,136,275,136,284,135,13,136,135
14265,63595534513293.2,60.00024000096,320,240,33,51,27,0,0,27,284,135,27,35,33,288,196,275,136,275,136,284,135,13,136,135
14266,63595534513312.2,60.00024000096,320,240,33,51,27,0,0,27,283,136,27,35,33,288,196,275,136,275,136,283,136,13,136,136
14267,63595534513334.2,60.00024000096,320,240,33,51,27,0,0,27,284,135,27,35,33,288,196,275,136,275,136,284,135,13,136,135
14268,63595534513355.2,60.00024000096,320,240,33,51,27,0,0,27,284,135,27,35,33,288,196,275,136,275,136,284,135,13,136,135
14269,63595534513375.2,60.00024000096,320,240,33,51,27,0,0,27,284,135,27,35,33,288,196,275,136,275,136,284,135,13,136,135
14270,63595534513397.2,60.00024000096,320,240,33,51,27,0,0,27,284,135,27,35,33,288,196,275,136,275,136,284,135,13,136,135
14271,63595534513417.2,60.00024000096,320,240,33,51,27,0,0,27,284,135,27,35,33,288,196,275,136,275,136,284,135,13,136,135
14272,63595534513439.2,60.00024000096,320,240,33,51,27,0,0,27,284,136,27,35,33,288,196,275,136,275,136,284,136,13,136,136
14273,63595534513462.2,60.00024000096,320,240,33,52,27,0,0,27,284,136,27,35,33,288,196,275,136,275,136,284,136,13,136,136
14274,63595534513480.2,60.00024000096,320,240,33,51,27,0,0,27,284,136,27,35,33,288,196,275,136,275,136,284,136,13,136,136
14275,63595534513501.2,60.00024000096,320,240,33,51,27,0,0,27,284,137,27,35,33,288,196,275,136,275,136,284,137,13,136,137
14276,63595534513521.2,60.00024000096,320,240,33,51,27,0,0,27,284,137,27,35,33,288,196,275,136,275,136,284,137,13,136,137
14277,63595534513541.2,60.00024000096,320,240,33,51,27,0,0,27,284,136,27,35,33,288,196,275,136,275,136,284,136,13,136,136
14278,63595534513560.3,60.00024000096,320,240,33,51,27,0,0,27,284,136,27,35,33,288,196,275,136,275,136,284,136,13,136,136
14279,63595534513581.2,60.00024000096,320,240,33,51,27,0,0,27,284,137,27,35,33,288,196,275,136,275,136,284,137,13,136,137
14280,63595534513602.2,60.00024000096,320,240,34,52,27,0,0,27,284,137,27,35,33,288,196,275,136,275,136,284,137,13,136,137
14281,63595534513625.2,60.00024000096,320,240,33,52,27,0,0,27,284,137,27,35,33,288,196,275,136,275,136,284,137,13,136,137
14282,63595534513645.3,60.00024000096,320,240,33,52,27,0,0,27,284,137,27,35,33,288,196,275,136,275,136,284,137,13,136,137
14283,63595534513667.2,60.00024000096,320,240,33,52,27,0,0,27,284,137,27,35,33,288,196,275,136,275,136,284,137,13,136,137
14284,63595534513687.3,60.00024000096,320,240,33,52,27,0,0,27,284,137,27,35,33,288,196,275,136,275,136,284,137,13,136,137
14285,63595534513713.2,60.00024000096,320,240,33,52,27,0,0,27,285,136,27,35,33,288,196,275,136,275,136,285,136,13,136,136
14286,63595534513734.3,60.00024000096,320,240,33,52,27,0,0,27,284,137,27,35,33,288,196,275,136,275,136,284,137,13,136,137
14287,63595534513754.3,60.00024000096,320,240,33,52,27,0,0,27,284,136,27,35,33,288,196,275,136,275,136,284,136,13,136,136
14288,63595534513775.3,60.00024000096,320,240,33,52,27,0,0,27,283,136,27,35,33,288,196,275,136,275,136,283,136,13,136,136
14289,63595534513796.3,60.00024000096,320,240,33,52,27,0,0,27,283,136,27,35,33,288,196,275,136,275,136,283,136,13,136,136
14290,63595534513820.3,60.00024000096,320,240,35,54,27,0,0,27,284,136,27,35,33,288,196,275,136,275,136,284,136,13,136,136
14291,63595534513844.3,60.00024000096,320,240,37,56,27,0,0,27,283,136,27,35,33,288,196,275,136,275,136,283,136,13,136,136
14292,63595534513870.3,60.00024000096,320,240,40,61,27,9.07410416777999,12.1318798076442,27,283,136,27,35,33,288,196,275,136,275,-7,283,136,13,136,136
14293,63595534513894.3,60.00024000096,320,240,40,61,27,0,0,27,283,137,27,35,33,288,196,275,136,275,-7,283,137,13,136,137
14294,63595534513922.3,60.00024000096,320,240,44,66,27,10.9980960424794,14.6882722595803,27,283,136,27,35,33,288,196,275,136,275,-14,283,136,13,136,136
14295,63595534513947.3,60.00024000096,320,240,48,70,27,17.5152202220199,21.4448774989872,27,283,136,27,35,33,288,196,275,136,275,1,283,136,13,136,136
14296,63595534513970.3,60.00024000096,320,240,50,72,27,19.7113361431118,20.566140861391,27,283,136,27,35,33,288,196,275,136,275,58,283,136,13,136,136
14297,63595534514002.3,60.00024000096,320,240,52,73,27,20.9026899126288,18.5985904384205,27,283,135,27,35,33,288,196,275,136,275,92,283,135,13,136,135
14298,63595534514026.3,60.00024000096,320,240,55,74,27,21.4717562417738,14.7362455750587,27,283,135,27,35,33,288,196,275,136,275,135,283,135,13,135,135
14299,63595534514058.3,60.00024000096,320,240,56,73,27,0,0,27,283,135,27,35,33,288,196,275,136,275,135,283,135,13,135,135
14300,63595534514078.3,60.00024000096,320,240,58,72,27,0,0,27,283,135,27,35,33,288,196,275,136,275,135,283,135,13,135,135
14301,63595534514100.3,60.00024000096,320,240,60,71,27,0,0,27,283,136,27,35,33,288,196,275,136,275,135,283,136,13,135,136
14302,63595534514120.3,60.00024000096,320,240,61,69,27,0,0,27,283,136,27,35,33,288,196,275,136,275,135,283,136,13,135,136
14303,63595534514143.3,60.00024000096,320,240,62,67,27,0,0,27,283,136,27,35,33,288,196,275,136,275,135,283,136,13,135,136
14304,63595534514165.3,60.00024000096,320,240,63,65,27,0,0,27,283,136,27,35,33,288,196,275,136,275,135,283,136,13,135,136
14305,63595534514187.3,60.00024000096,320,240,64,64,27,0,0,27,283,136,27,35,33,288,196,275,136,275,135,283,136,13,135,136
14306,63595534514208.3,60.00024000096,320,240,65,62,27,0,0,27,284,135,27,35,33,288,196,275,136,275,135,284,135,13,135,135
14307,63595534514227.3,60.00024000096,320,240,65,62,27,0,0,27,284,135,27,35,33,288,196,275,136,275,135,284,135,13,135,135
14308,63595534514253.3,60.00024000096,320,240,65,59,27,0,0,27,285,136,27,35,33,288,196,275,136,275,135,285,136,13,135,136
14309,63595534514275.3,60.00024000096,320,240,66,57,27,0,0,27,285,136,27,35,33,288,196,275,136,275,135,285,136,13,135,136
